 # t    theta
   0.00000000       3.12763000    
   1.00000005E-03   3.12762976    
   2.00000009E-03   3.12762928    
   3.00000003E-03   3.12762856    
   4.00000019E-03   3.12762761    
   5.00000035E-03   3.12762642    
   6.00000052E-03   3.12762499    
   7.00000068E-03   3.12762332    
   8.00000038E-03   3.12762141    
   9.00000054E-03   3.12761927    
   1.00000007E-02   3.12761688    
   1.10000009E-02   3.12761426    
   1.20000010E-02   3.12761140    
   1.30000012E-02   3.12760830    
   1.40000014E-02   3.12760496    
   1.50000015E-02   3.12760139    
   1.60000008E-02   3.12759757    
   1.70000009E-02   3.12759352    
   1.80000011E-02   3.12758923    
   1.90000013E-02   3.12758470    
   2.00000014E-02   3.12757993    
   2.10000016E-02   3.12757492    
   2.20000017E-02   3.12756968    
   2.30000019E-02   3.12756419    
   2.40000021E-02   3.12755847    
   2.50000022E-02   3.12755251    
   2.60000024E-02   3.12754631    
   2.70000026E-02   3.12753987    
   2.80000027E-02   3.12753320    
   2.90000029E-02   3.12752628    
   3.00000031E-02   3.12751913    
   3.10000032E-02   3.12751174    
   3.20000015E-02   3.12750411    
   3.29999998E-02   3.12749624    
   3.39999981E-02   3.12748814    
   3.49999964E-02   3.12747979    
   3.59999947E-02   3.12747121    
   3.69999930E-02   3.12746239    
   3.79999913E-02   3.12745333    
   3.89999896E-02   3.12744403    
   3.99999879E-02   3.12743449    
   4.09999862E-02   3.12742472    
   4.19999845E-02   3.12741470    
   4.29999828E-02   3.12740445    
   4.39999811E-02   3.12739396    
   4.49999794E-02   3.12738323    
   4.59999777E-02   3.12737226    
   4.69999760E-02   3.12736106    
   4.79999743E-02   3.12734962    
   4.89999726E-02   3.12733793    
   4.99999709E-02   3.12732601    
   5.09999692E-02   3.12731385    
   5.19999675E-02   3.12730145    
   5.29999658E-02   3.12728882    
   5.39999641E-02   3.12727594    
   5.49999624E-02   3.12726283    
   5.59999608E-02   3.12724948    
   5.69999591E-02   3.12723589    
   5.79999574E-02   3.12722206    
   5.89999557E-02   3.12720799    
   5.99999540E-02   3.12719369    
   6.09999523E-02   3.12717915    
   6.19999506E-02   3.12716436    
   6.29999489E-02   3.12714934    
   6.39999509E-02   3.12713408    
   6.49999529E-02   3.12711859    
   6.59999549E-02   3.12710285    
   6.69999570E-02   3.12708688    
   6.79999590E-02   3.12707067    
   6.89999610E-02   3.12705421    
   6.99999630E-02   3.12703753    
   7.09999651E-02   3.12702060    
   7.19999671E-02   3.12700343    
   7.29999691E-02   3.12698603    
   7.39999712E-02   3.12696838    
   7.49999732E-02   3.12695050    
   7.59999752E-02   3.12693238    
   7.69999772E-02   3.12691402    
   7.79999793E-02   3.12689543    
   7.89999813E-02   3.12687659    
   7.99999833E-02   3.12685752    
   8.09999853E-02   3.12683821    
   8.19999874E-02   3.12681866    
   8.29999894E-02   3.12679887    
   8.39999914E-02   3.12677884    
   8.49999934E-02   3.12675858    
   8.59999955E-02   3.12673807    
   8.69999975E-02   3.12671733    
   8.79999995E-02   3.12669635    
   8.90000015E-02   3.12667513    
   9.00000036E-02   3.12665367    
   9.10000056E-02   3.12663198    
   9.20000076E-02   3.12661004    
   9.30000097E-02   3.12658787    
   9.40000117E-02   3.12656546    
   9.50000137E-02   3.12654281    
   9.60000157E-02   3.12651992    
   9.70000178E-02   3.12649679    
   9.80000198E-02   3.12647343    
   9.90000218E-02   3.12644982    
  0.100000024       3.12642598    
  0.101000026       3.12640190    
  0.102000028       3.12637758    
  0.103000030       3.12635303    
  0.104000032       3.12632823    
  0.105000034       3.12630320    
  0.106000036       3.12627792    
  0.107000038       3.12625241    
  0.108000040       3.12622666    
  0.109000042       3.12620068    
  0.110000044       3.12617445    
  0.111000046       3.12614799    
  0.112000048       3.12612128    
  0.113000050       3.12609434    
  0.114000052       3.12606716    
  0.115000054       3.12603974    
  0.116000056       3.12601209    
  0.117000058       3.12598419    
  0.118000060       3.12595606    
  0.119000062       3.12592769    
  0.120000064       3.12589908    
  0.121000066       3.12587023    
  0.122000068       3.12584114    
  0.123000070       3.12581182    
  0.124000072       3.12578225    
  0.125000075       3.12575245    
  0.126000077       3.12572241    
  0.127000079       3.12569213    
  0.128000081       3.12566161    
  0.129000083       3.12563086    
  0.130000085       3.12559986    
  0.131000087       3.12556863    
  0.132000089       3.12553716    
  0.133000091       3.12550545    
  0.134000093       3.12547350    
  0.135000095       3.12544131    
  0.136000097       3.12540889    
  0.137000099       3.12537622    
  0.138000101       3.12534332    
  0.139000103       3.12531018    
  0.140000105       3.12527680    
  0.141000107       3.12524319    
  0.142000109       3.12520933    
  0.143000111       3.12517524    
  0.144000113       3.12514091    
  0.145000115       3.12510633    
  0.146000117       3.12507153    
  0.147000119       3.12503648    
  0.148000121       3.12500119    
  0.149000123       3.12496567    
  0.150000125       3.12492990    
  0.151000127       3.12489390    
  0.152000129       3.12485766    
  0.153000131       3.12482119    
  0.154000133       3.12478447    
  0.155000135       3.12474751    
  0.156000137       3.12471032    
  0.157000139       3.12467289    
  0.158000141       3.12463522    
  0.159000143       3.12459731    
  0.160000145       3.12455916    
  0.161000147       3.12452078    
  0.162000149       3.12448215    
  0.163000152       3.12444329    
  0.164000154       3.12440419    
  0.165000156       3.12436485    
  0.166000158       3.12432528    
  0.167000160       3.12428546    
  0.168000162       3.12424541    
  0.169000164       3.12420511    
  0.170000166       3.12416458    
  0.171000168       3.12412381    
  0.172000170       3.12408280    
  0.173000172       3.12404156    
  0.174000174       3.12400007    
  0.175000176       3.12395835    
  0.176000178       3.12391639    
  0.177000180       3.12387419    
  0.178000182       3.12383175    
  0.179000184       3.12378907    
  0.180000186       3.12374616    
  0.181000188       3.12370300    
  0.182000190       3.12365961    
  0.183000192       3.12361598    
  0.184000194       3.12357211    
  0.185000196       3.12352800    
  0.186000198       3.12348366    
  0.187000200       3.12343907    
  0.188000202       3.12339425    
  0.189000204       3.12334919    
  0.190000206       3.12330389    
  0.191000208       3.12325835    
  0.192000210       3.12321258    
  0.193000212       3.12316656    
  0.194000214       3.12312031    
  0.195000216       3.12307382    
  0.196000218       3.12302709    
  0.197000220       3.12298012    
  0.198000222       3.12293291    
  0.199000224       3.12288547    
  0.200000226       3.12283778    
  0.201000229       3.12278986    
  0.202000231       3.12274170    
  0.203000233       3.12269330    
  0.204000235       3.12264466    
  0.205000237       3.12259579    
  0.206000239       3.12254667    
  0.207000241       3.12249732    
  0.208000243       3.12244773    
  0.209000245       3.12239790    
  0.210000247       3.12234783    
  0.211000249       3.12229753    
  0.212000251       3.12224698    
  0.213000253       3.12219620    
  0.214000255       3.12214518    
  0.215000257       3.12209392    
  0.216000259       3.12204242    
  0.217000261       3.12199068    
  0.218000263       3.12193871    
  0.219000265       3.12188649    
  0.220000267       3.12183404    
  0.221000269       3.12178135    
  0.222000271       3.12172842    
  0.223000273       3.12167525    
  0.224000275       3.12162185    
  0.225000277       3.12156820    
  0.226000279       3.12151432    
  0.227000281       3.12146020    
  0.228000283       3.12140584    
  0.229000285       3.12135124    
  0.230000287       3.12129641    
  0.231000289       3.12124133    
  0.232000291       3.12118602    
  0.233000293       3.12113047    
  0.234000295       3.12107468    
  0.235000297       3.12101865    
  0.236000299       3.12096238    
  0.237000301       3.12090588    
  0.238000304       3.12084913    
  0.239000306       3.12079215    
  0.240000308       3.12073493    
  0.241000310       3.12067747    
  0.242000312       3.12061977    
  0.243000314       3.12056184    
  0.244000316       3.12050366    
  0.245000318       3.12044525    
  0.246000320       3.12038660    
  0.247000322       3.12032771    
  0.248000324       3.12026858    
  0.249000326       3.12020922    
  0.250000328       3.12014961    
  0.251000315       3.12008977    
  0.252000302       3.12002969    
  0.253000289       3.11996937    
  0.254000276       3.11990881    
  0.255000263       3.11984801    
  0.256000251       3.11978698    
  0.257000238       3.11972570    
  0.258000225       3.11966419    
  0.259000212       3.11960244    
  0.260000199       3.11954045    
  0.261000186       3.11947823    
  0.262000173       3.11941576    
  0.263000160       3.11935306    
  0.264000148       3.11929011    
  0.265000135       3.11922693    
  0.266000122       3.11916351    
  0.267000109       3.11909986    
  0.268000096       3.11903596    
  0.269000083       3.11897182    
  0.270000070       3.11890745    
  0.271000057       3.11884284    
  0.272000045       3.11877799    
  0.273000032       3.11871290    
  0.274000019       3.11864758    
  0.275000006       3.11858201    
  0.275999993       3.11851621    
  0.276999980       3.11845016    
  0.277999967       3.11838388    
  0.278999954       3.11831737    
  0.279999942       3.11825061    
  0.280999929       3.11818361    
  0.281999916       3.11811638    
  0.282999903       3.11804891    
  0.283999890       3.11798120    
  0.284999877       3.11791325    
  0.285999864       3.11784506    
  0.286999851       3.11777663    
  0.287999839       3.11770797    
  0.288999826       3.11763906    
  0.289999813       3.11756992    
  0.290999800       3.11750054    
  0.291999787       3.11743093    
  0.292999774       3.11736107    
  0.293999761       3.11729097    
  0.294999748       3.11722064    
  0.295999736       3.11715007    
  0.296999723       3.11707926    
  0.297999710       3.11700821    
  0.298999697       3.11693692    
  0.299999684       3.11686540    
  0.300999671       3.11679363    
  0.301999658       3.11672163    
  0.302999645       3.11664939    
  0.303999633       3.11657691    
  0.304999620       3.11650419    
  0.305999607       3.11643124    
  0.306999594       3.11635804    
  0.307999581       3.11628461    
  0.308999568       3.11621094    
  0.309999555       3.11613703    
  0.310999542       3.11606288    
  0.311999530       3.11598849    
  0.312999517       3.11591387    
  0.313999504       3.11583900    
  0.314999491       3.11576390    
  0.315999478       3.11568856    
  0.316999465       3.11561298    
  0.317999452       3.11553717    
  0.318999439       3.11546111    
  0.319999427       3.11538482    
  0.320999414       3.11530828    
  0.321999401       3.11523151    
  0.322999388       3.11515450    
  0.323999375       3.11507726    
  0.324999362       3.11499977    
  0.325999349       3.11492205    
  0.326999336       3.11484408    
  0.327999324       3.11476588    
  0.328999311       3.11468744    
  0.329999298       3.11460876    
  0.330999285       3.11452985    
  0.331999272       3.11445069    
  0.332999259       3.11437130    
  0.333999246       3.11429167    
  0.334999233       3.11421180    
  0.335999221       3.11413169    
  0.336999208       3.11405134    
  0.337999195       3.11397076    
  0.338999182       3.11388993    
  0.339999169       3.11380887    
  0.340999156       3.11372757    
  0.341999143       3.11364603    
  0.342999130       3.11356425    
  0.343999118       3.11348224    
  0.344999105       3.11339998    
  0.345999092       3.11331749    
  0.346999079       3.11323476    
  0.347999066       3.11315179    
  0.348999053       3.11306858    
  0.349999040       3.11298513    
  0.350999027       3.11290145    
  0.351999015       3.11281753    
  0.352999002       3.11273336    
  0.353998989       3.11264896    
  0.354998976       3.11256433    
  0.355998963       3.11247945    
  0.356998950       3.11239433    
  0.357998937       3.11230898    
  0.358998924       3.11222339    
  0.359998912       3.11213756    
  0.360998899       3.11205149    
  0.361998886       3.11196518    
  0.362998873       3.11187863    
  0.363998860       3.11179185    
  0.364998847       3.11170483    
  0.365998834       3.11161757    
  0.366998821       3.11153007    
  0.367998809       3.11144233    
  0.368998796       3.11135435    
  0.369998783       3.11126614    
  0.370998770       3.11117768    
  0.371998757       3.11108899    
  0.372998744       3.11100006    
  0.373998731       3.11091089    
  0.374998719       3.11082149    
  0.375998706       3.11073184    
  0.376998693       3.11064196    
  0.377998680       3.11055183    
  0.378998667       3.11046147    
  0.379998654       3.11037087    
  0.380998641       3.11028004    
  0.381998628       3.11018896    
  0.382998616       3.11009765    
  0.383998603       3.11000609    
  0.384998590       3.10991430    
  0.385998577       3.10982227    
  0.386998564       3.10973001    
  0.387998551       3.10963750    
  0.388998538       3.10954475    
  0.389998525       3.10945177    
  0.390998513       3.10935855    
  0.391998500       3.10926509    
  0.392998487       3.10917139    
  0.393998474       3.10907745    
  0.394998461       3.10898328    
  0.395998448       3.10888886    
  0.396998435       3.10879421    
  0.397998422       3.10869932    
  0.398998410       3.10860419    
  0.399998397       3.10850883    
  0.400998384       3.10841322    
  0.401998371       3.10831738    
  0.402998358       3.10822129    
  0.403998345       3.10812497    
  0.404998332       3.10802841    
  0.405998319       3.10793161    
  0.406998307       3.10783458    
  0.407998294       3.10773730    
  0.408998281       3.10763979    
  0.409998268       3.10754204    
  0.410998255       3.10744405    
  0.411998242       3.10734582    
  0.412998229       3.10724735    
  0.413998216       3.10714865    
  0.414998204       3.10704970    
  0.415998191       3.10695052    
  0.416998178       3.10685110    
  0.417998165       3.10675144    
  0.418998152       3.10665154    
  0.419998139       3.10655141    
  0.420998126       3.10645103    
  0.421998113       3.10635042    
  0.422998101       3.10624957    
  0.423998088       3.10614848    
  0.424998075       3.10604715    
  0.425998062       3.10594559    
  0.426998049       3.10584378    
  0.427998036       3.10574174    
  0.428998023       3.10563946    
  0.429998010       3.10553694    
  0.430997998       3.10543418    
  0.431997985       3.10533118    
  0.432997972       3.10522795    
  0.433997959       3.10512447    
  0.434997946       3.10502076    
  0.435997933       3.10491657    
  0.436997920       3.10481191    
  0.437997907       3.10470676    
  0.438997895       3.10460114    
  0.439997882       3.10449505    
  0.440997869       3.10438848    
  0.441997856       3.10428143    
  0.442997843       3.10417390    
  0.443997830       3.10406590    
  0.444997817       3.10395741    
  0.445997804       3.10384846    
  0.446997792       3.10373902    
  0.447997779       3.10362911    
  0.448997766       3.10351872    
  0.449997753       3.10340786    
  0.450997740       3.10329652    
  0.451997727       3.10318470    
  0.452997714       3.10307240    
  0.453997701       3.10295963    
  0.454997689       3.10284638    
  0.455997676       3.10273266    
  0.456997663       3.10261846    
  0.457997650       3.10250378    
  0.458997637       3.10238862    
  0.459997624       3.10227299    
  0.460997611       3.10215688    
  0.461997598       3.10204029    
  0.462997586       3.10192323    
  0.463997573       3.10180569    
  0.464997560       3.10168767    
  0.465997547       3.10156918    
  0.466997534       3.10145020    
  0.467997521       3.10133076    
  0.468997508       3.10121083    
  0.469997495       3.10109043    
  0.470997483       3.10096955    
  0.471997470       3.10084820    
  0.472997457       3.10072637    
  0.473997444       3.10060406    
  0.474997431       3.10048127    
  0.475997418       3.10035801    
  0.476997405       3.10023427    
  0.477997392       3.10011005    
  0.478997380       3.09998536    
  0.479997367       3.09986019    
  0.480997354       3.09973454    
  0.481997341       3.09960842    
  0.482997328       3.09948182    
  0.483997315       3.09935474    
  0.484997302       3.09922719    
  0.485997289       3.09909916    
  0.486997277       3.09897065    
  0.487997264       3.09884167    
  0.488997251       3.09871221    
  0.489997238       3.09858227    
  0.490997225       3.09845185    
  0.491997212       3.09832096    
  0.492997199       3.09818959    
  0.493997186       3.09805775    
  0.494997174       3.09792542    
  0.495997161       3.09779263    
  0.496997148       3.09765935    
  0.497997135       3.09752560    
  0.498997122       3.09739137    
  0.499997109       3.09725666    
  0.500997126       3.09712148    
  0.501997113       3.09698582    
  0.502997100       3.09684968    
  0.503997087       3.09671307    
  0.504997075       3.09657598    
  0.505997062       3.09643841    
  0.506997049       3.09630036    
  0.507997036       3.09616184    
  0.508997023       3.09602284    
  0.509997010       3.09588337    
  0.510996997       3.09574342    
  0.511996984       3.09560299    
  0.512996972       3.09546208    
  0.513996959       3.09532070    
  0.514996946       3.09517884    
  0.515996933       3.09503651    
  0.516996920       3.09489369    
  0.517996907       3.09475040    
  0.518996894       3.09460664    
  0.519996881       3.09446239    
  0.520996869       3.09431767    
  0.521996856       3.09417248    
  0.522996843       3.09402680    
  0.523996830       3.09388065    
  0.524996817       3.09373403    
  0.525996804       3.09358692    
  0.526996791       3.09343934    
  0.527996778       3.09329128    
  0.528996766       3.09314275    
  0.529996753       3.09299374    
  0.530996740       3.09284425    
  0.531996727       3.09269428    
  0.532996714       3.09254384    
  0.533996701       3.09239292    
  0.534996688       3.09224153    
  0.535996675       3.09208965    
  0.536996663       3.09193730    
  0.537996650       3.09178448    
  0.538996637       3.09163117    
  0.539996624       3.09147739    
  0.540996611       3.09132314    
  0.541996598       3.09116840    
  0.542996585       3.09101319    
  0.543996572       3.09085751    
  0.544996560       3.09070134    
  0.545996547       3.09054470    
  0.546996534       3.09038758    
  0.547996521       3.09022999    
  0.548996508       3.09007192    
  0.549996495       3.08991337    
  0.550996482       3.08975434    
  0.551996469       3.08959484    
  0.552996457       3.08943486    
  0.553996444       3.08927441    
  0.554996431       3.08911347    
  0.555996418       3.08895206    
  0.556996405       3.08879018    
  0.557996392       3.08862782    
  0.558996379       3.08846498    
  0.559996367       3.08830166    
  0.560996354       3.08813787    
  0.561996341       3.08797359    
  0.562996328       3.08780885    
  0.563996315       3.08764362    
  0.564996302       3.08747792    
  0.565996289       3.08731174    
  0.566996276       3.08714509    
  0.567996264       3.08697796    
  0.568996251       3.08681035    
  0.569996238       3.08664227    
